Wavelength [nm]	Wavenumbers [1/cm]	TVRSTVA corrected	VZOREK corrected
330.000	30303.03	0.003117	0.8174
332.000	30120.48	0.005869	0.825
334.000	29940.12	0.01028	0.8314
336.000	29761.90	0.01697	0.8369
338.000	29585.80	0.02617	0.8418
340.000	29411.76	0.03871	0.8461
342.000	29239.76	0.05548	0.8498
344.000	29069.76	0.07793	0.8528
346.000	28901.73	0.1072	0.8551
348.000	28735.63	0.1419	0.8574
350.000	28571.43	0.1785	0.8596
352.000	28409.09	0.211	0.8615
354.000	28248.59	0.2373	0.8634
356.000	28089.89	0.2617	0.8649
358.000	27932.96	0.2917	0.8661
360.000	27777.78	0.3342	0.867
362.000	27624.31	0.3929	0.8672
364.000	27472.53	0.4691	0.8681
366.000	27322.40	0.5511	0.8683
368.000	27173.91	0.619	0.869
370.000	27027.02	0.6491	0.8689
372.000	26881.72	0.6379	0.8692
374.000	26737.97	0.6021	0.8695
376.000	26595.74	0.5635	0.8697
378.000	26455.02	0.5326	0.8697
380.000	26315.79	0.5158	0.8703
382.000	26178.01	0.515	0.8705
384.000	26041.66	0.53	0.8713
386.000	25906.73	0.5606	0.8725
388.000	25773.19	0.6051	0.8728
390.000	25641.02	0.66	0.8732
392.000	25510.20	0.7212	0.8736
394.000	25380.71	0.7806	0.8738
396.000	25252.52	0.8282	0.8747
398.000	25125.63	0.8544	0.8747
400.000	25000.00	0.8547	0.8751
402.000	24875.62	0.8313	0.8755
404.000	24752.47	0.7938	0.8757
406.000	24630.54	0.7486	0.8763
408.000	24509.80	0.7034	0.8759
410.000	24390.24	0.663	0.877
412.000	24271.84	0.629	0.8767
414.000	24154.59	0.6042	0.8763
416.000	24038.46	0.5888	0.8769
418.000	23923.44	0.5816	0.8777
420.000	23809.52	0.5817	0.8776
422.000	23696.68	0.5885	0.8778
424.000	23584.90	0.6021	0.8783
426.000	23474.18	0.6219	0.8783
428.000	23364.48	0.647	0.8784
430.000	23255.81	0.6768	0.8786
432.000	23148.15	0.7099	0.8787
434.000	23041.47	0.7457	0.8792
436.000	22935.78	0.7818	0.8792
438.000	22831.05	0.8153	0.8795
440.000	22727.27	0.8443	0.88
442.000	22624.43	0.8646	0.88
444.000	22522.52	0.8747	0.8801
446.000	22421.52	0.875	0.8808
448.000	22321.43	0.8654	0.8806
450.000	22222.22	0.8495	0.8818
452.000	22123.89	0.826	0.8819
454.000	22026.43	0.7991	0.8815
456.000	21929.82	0.7708	0.8811
458.000	21834.06	0.7432	0.8815
460.000	21739.13	0.7174	0.8819
462.000	21645.02	0.6931	0.8821
464.000	21551.72	0.6719	0.8822
466.000	21459.23	0.6536	0.8822
468.000	21367.52	0.6386	0.8822
470.000	21276.59	0.6279	0.8841
472.000	21186.44	0.6206	0.8844
474.000	21097.05	0.6159	0.8843
476.000	21008.40	0.6147	0.8845
478.000	20920.50	0.6169	0.8848
480.000	20833.33	0.6218	0.8854
482.000	20746.89	0.629	0.8852
484.000	20661.16	0.6389	0.8856
486.000	20576.13	0.6515	0.8857
488.000	20491.80	0.6659	0.8858
490.000	20408.16	0.6822	0.8858
492.000	20325.20	0.7005	0.8859
494.000	20242.91	0.7211	0.8868
496.000	20161.29	0.743	0.887
498.000	20080.32	0.7688	0.8882
500.000	20000.00	0.7867	0.8868
502.000	19920.32	0.8079	0.8873
504.000	19841.27	0.8265	0.8871
506.000	19762.84	0.8444	0.8875
508.000	19685.04	0.8599	0.888
510.000	19607.84	0.8719	0.8878
512.000	19531.25	0.8802	0.8882
514.000	19455.25	0.885	0.8885
516.000	19379.84	0.8861	0.8885
518.000	19305.02	0.8839	0.8882
520.000	19230.77	0.8775	0.8881
522.000	19157.09	0.8676	0.8884
524.000	19083.97	0.855	0.8884
526.000	19011.41	0.841	0.8888
528.000	18939.39	0.825	0.8889
530.000	18867.92	0.8086	0.8891
532.000	18796.99	0.7926	0.8895
534.000	18726.59	0.7757	0.8892
536.000	18656.72	0.7599	0.8897
538.000	18587.36	0.744	0.8899
540.000	18518.52	0.7289	0.8901
542.000	18450.18	0.7148	0.8905
544.000	18382.35	0.7017	0.8903
546.000	18315.02	0.6901	0.8909
548.000	18248.17	0.6789	0.8904
550.000	18181.82	0.6692	0.8901
552.000	18115.94	0.6606	0.8904
554.000	18050.54	0.6538	0.8909
556.000	17985.61	0.6488	0.8913
558.000	17921.15	0.6447	0.8915
560.000	17857.14	0.6414	0.8915
562.000	17793.59	0.6401	0.8916
564.000	17730.50	0.6395	0.8916
566.000	17667.84	0.6401	0.8916
568.000	17605.63	0.6421	0.8916
570.000	17543.86	0.6448	0.8916
572.000	17482.52	0.6487	0.8916
574.000	17421.60	0.6537	0.8923
576.000	17361.11	0.6594	0.8923
578.000	17301.04	0.6666	0.8918
580.000	17241.38	0.6749	0.892
582.000	17182.13	0.6835	0.8915
584.000	17123.29	0.6925	0.8919
586.000	17064.85	0.7034	0.8927
588.000	17006.80	0.714	0.8928
590.000	16949.15	0.7255	0.8924
592.000	16891.89	0.7369	0.8927
594.000	16835.02	0.749	0.8932
596.000	16778.52	0.7616	0.8931
598.000	16722.41	0.7741	0.8933
600.000	16666.67	0.7858	0.893
602.000	16611.30	0.7983	0.8932
604.000	16556.29	0.8106	0.8935
606.000	16501.65	0.8227	0.8938
608.000	16447.37	0.8343	0.8936
610.000	16393.44	0.8451	0.894
612.000	16339.87	0.8543	0.8937
614.000	16286.64	0.8626	0.8935
616.000	16233.77	0.8701	0.8935
618.000	16181.23	0.8769	0.8939
620.000	16129.03	0.882	0.8938
622.000	16077.17	0.886	0.8938
624.000	16025.64	0.8889	0.8944
626.000	15974.44	0.8899	0.8943
628.000	15923.57	0.8897	0.8942
630.000	15873.02	0.8886	0.8944
632.000	15822.78	0.8857	0.8945
634.000	15772.87	0.8816	0.8942
636.000	15723.27	0.8765	0.8943
638.000	15673.98	0.8707	0.8944
640.000	15625.00	0.864	0.8947
642.000	15576.32	0.8561	0.8942
644.000	15527.95	0.8481	0.8945
646.000	15479.88	0.8393	0.8948
648.000	15432.10	0.8304	0.8949
650.000	15384.61	0.8209	0.895
652.000	15337.42	0.8115	0.8951
654.000	15290.52	0.802	0.895
656.000	15243.90	0.7926	0.8951
658.000	15197.57	0.7825	0.8947
660.000	15151.51	0.7726	0.8948
662.000	15105.74	0.7633	0.895
664.000	15060.24	0.7534	0.895
666.000	15015.01	0.7441	0.895
668.000	14970.06	0.7354	0.8953
670.000	14925.37	0.7273	0.8952
672.000	14880.95	0.7196	0.8955
674.000	14836.79	0.712	0.8957
676.000	14792.90	0.705	0.896
678.000	14749.26	0.6982	0.8961
680.000	14705.88	0.6918	0.8961
682.000	14662.76	0.6858	0.8957
684.000	14619.88	0.6808	0.8957
686.000	14577.26	0.6759	0.896
688.000	14534.88	0.6711	0.8962
690.000	14492.75	0.6668	0.8962
692.000	14450.87	0.663	0.8959
694.000	14409.22	0.6601	0.896
696.000	14367.82	0.6576	0.8958
698.000	14326.65	0.6554	0.8961
700.000	14285.71	0.6532	0.896
702.000	14245.01	0.6515	0.8959
704.000	14204.55	0.6505	0.896
706.000	14164.31	0.6501	0.896
708.000	14124.29	0.6498	0.8962
710.000	14084.51	0.6497	0.8959
712.000	14044.94	0.6503	0.8962
714.000	14005.60	0.6513	0.8963
716.000	13966.48	0.6529	0.8961
718.000	13927.58	0.6546	0.896
720.000	13888.89	0.6568	0.8964
722.000	13850.42	0.6593	0.8965
724.000	13812.15	0.6619	0.8965
726.000	13774.10	0.6649	0.8965
728.000	13736.26	0.668	0.8965
730.000	13698.63	0.6719	0.8969
732.000	13661.20	0.6758	0.8966
734.000	13623.98	0.6801	0.897
736.000	13586.96	0.6844	0.8969
738.000	13550.14	0.6886	0.8969
740.000	13513.51	0.6938	0.8969
742.000	13477.09	0.699	0.8967
744.000	13440.86	0.7045	0.8968
746.000	13404.83	0.7105	0.8969
748.000	13368.98	0.7165	0.8969
750.000	13333.33	0.7228	0.897
752.000	13297.87	0.7289	0.897
754.000	13262.60	0.7352	0.8973
756.000	13227.51	0.7414	0.8973
758.000	13192.61	0.7483	0.8977
760.000	13157.89	0.7551	0.8976
762.000	13123.36	0.7613	0.8973
764.000	13089.01	0.768	0.8975
766.000	13054.83	0.7748	0.8974
768.000	13020.83	0.7813	0.8974
770.000	12987.01	0.788	0.8977
772.000	12953.37	0.7951	0.8981
774.000	12919.90	0.8018	0.8981
776.000	12886.60	0.8081	0.8981
778.000	12853.47	0.8147	0.8978
780.000	12820.51	0.821	0.8979
782.000	12787.72	0.827	0.8981
784.000	12755.10	0.8334	0.8983
786.000	12722.65	0.8389	0.8983
788.000	12690.36	0.8443	0.8987
790.000	12658.23	0.8493	0.8982
792.000	12626.26	0.8542	0.8985
794.000	12594.46	0.8586	0.8985
796.000	12562.81	0.8631	0.8987
798.000	12531.33	0.8668	0.8984
800.000	12500.00	0.8699	0.8983
802.000	12468.83	0.8738	0.8986
804.000	12437.81	0.8768	0.8986
806.000	12406.95	0.8791	0.8981
808.000	12376.24	0.8812	0.8988
810.000	12345.68	0.8826	0.898
812.000	12315.27	0.8843	0.8986
814.000	12285.01	0.8853	0.8989
816.000	12254.90	0.8858	0.8986
818.000	12224.94	0.8857	0.8989
820.000	12195.12	0.8857	0.8994
822.000	12165.45	0.8846	0.8992
824.000	12135.92	0.8844	0.8996
826.000	12106.54	0.883	0.8994
828.000	12077.29	0.8811	0.8994
830.000	12048.19	0.8789	0.8993
832.000	12019.23	0.8762	0.8988
834.000	11990.41	0.8741	0.8989
836.000	11961.72	0.871	0.8986
838.000	11933.17	0.8677	0.8986
840.000	11904.76	0.8645	0.8985
842.000	11876.48	0.8605	0.8985
844.000	11848.34	0.8568	0.8989
846.000	11820.33	0.8526	0.8983
848.000	11792.45	0.8482	0.8983
850.000	11764.71	0.8443	0.8986
852.000	11737.09	0.8403	0.8987
854.000	11709.60	0.835	0.8987
856.000	11682.24	0.8302	0.8983
858.000	11655.01	0.8257	0.8985
860.000	11627.91	0.8206	0.8991
862.000	11600.93	0.8155	0.8989
864.000	11574.07	0.8105	0.8985
866.000	11547.34	0.8053	0.8984
868.000	11520.74	0.8002	0.8986
870.000	11494.25	0.795	0.8985
872.000	11467.89	0.7901	0.898
874.000	11441.65	0.7851	0.8977
876.000	11415.52	0.7797	0.898
878.000	11389.52	0.7748	0.8982
880.000	11363.64	0.7698	0.898
882.000	11337.87	0.7653	0.8982
884.000	11312.22	0.7607	0.8985
886.000	11286.68	0.7557	0.898
888.000	11261.26	0.7512	0.8984
890.000	11235.95	0.7468	0.8987
892.000	11210.76	0.7418	0.8983
894.000	11185.68	0.7375	0.8984
896.000	11160.71	0.7333	0.8982
898.000	11135.86	0.7293	0.8984
900.000	11111.11	0.7247	0.898
902.000	11086.47	0.7208	0.898
904.000	11061.95	0.7171	0.8983
906.000	11037.53	0.7132	0.8984
908.000	11013.22	0.7097	0.8983
910.000	10989.01	0.7061	0.898
912.000	10964.91	0.7029	0.8982
914.000	10940.92	0.6996	0.898
916.000	10917.03	0.6961	0.8982
918.000	10893.25	0.6928	0.898
920.000	10869.57	0.6898	0.8981
922.000	10845.99	0.6869	0.8981
924.000	10822.51	0.6842	0.8983
926.000	10799.14	0.6818	0.8982
928.000	10775.86	0.6792	0.8981
930.000	10752.69	0.6768	0.8979
932.000	10729.61	0.6747	0.8983
934.000	10706.64	0.6728	0.8987
936.000	10683.76	0.6706	0.8981
938.000	10660.98	0.6689	0.8984
940.000	10638.30	0.6673	0.8985
942.000	10615.71	0.6657	0.8984
944.000	10593.22	0.664	0.8985
946.000	10570.82	0.6625	0.8984
948.000	10548.52	0.6612	0.8985
950.000	10526.32	0.6595	0.8986
952.000	10504.20	0.6587	0.8987
954.000	10482.18	0.658	0.8988
956.000	10460.25	0.6568	0.8988
958.000	10438.41	0.6565	0.899
960.000	10416.67	0.6561	0.8994
962.000	10395.01	0.6556	0.8992
964.000	10373.44	0.6553	0.8997
966.000	10351.97	0.655	0.8995
968.000	10330.58	0.6546	0.8991
970.000	10309.28	0.6545	0.8991
972.000	10288.07	0.6544	0.8994
974.000	10266.94	0.6547	0.8997
976.000	10245.90	0.6552	0.8996
978.000	10224.95	0.6554	0.8996
980.000	10204.08	0.6558	0.9002
982.000	10183.30	0.6563	0.9001
984.000	10162.60	0.6569	0.9004
986.000	10141.99	0.6573	0.9002
988.000	10121.46	0.6584	0.9002
990.000	10101.01	0.6593	0.9006
992.000	10080.65	0.6601	0.9002
994.000	10060.36	0.6612	0.9007
996.000	10040.16	0.6622	0.9009
998.000	10020.04	0.6635	0.9011
1000.000	10000.00	0.6647	0.901
1002.000	9980.04	0.6661	0.9013
1004.000	9960.16	0.6676	0.9016
1006.000	9940.36	0.669	0.9017
1008.000	9920.63	0.6707	0.902
1010.000	9900.99	0.6727	0.9023
1012.000	9881.42	0.6743	0.9023
1014.000	9861.93	0.6758	0.902
1016.000	9842.52	0.6779	0.9023
1018.000	9823.18	0.68	0.9027
1020.000	9803.92	0.6823	0.9033
1022.000	9784.74	0.6844	0.9035
1024.000	9765.62	0.6866	0.9036
1026.000	9746.59	0.6891	0.9041
1028.000	9727.63	0.6914	0.9043
1030.000	9708.74	0.6936	0.9042
1032.000	9689.92	0.696	0.9046
1034.000	9671.18	0.6987	0.9049
1036.000	9652.51	0.7015	0.9054
1038.000	9633.91	0.7041	0.9056
1040.000	9615.38	0.707	0.9056
1042.000	9596.93	0.7099	0.9062
1044.000	9578.54	0.7125	0.9063
1046.000	9560.23	0.7154	0.9066
1048.000	9541.98	0.7184	0.9069
1050.000	9523.81	0.7211	0.907
1052.000	9505.70	0.724	0.9075
1054.000	9487.67	0.7272	0.9078
1056.000	9469.70	0.7301	0.9082
1058.000	9451.80	0.7334	0.9088
1060.000	9433.96	0.7369	0.9092
1062.000	9416.20	0.7403	0.9097
1064.000	9398.50	0.7435	0.9098
1066.000	9380.86	0.7463	0.9099
1068.000	9363.30	0.7493	0.9101
1070.000	9345.79	0.7519	0.9099
1072.000	9328.36	0.7551	0.9099
1074.000	9310.99	0.7582	0.9097
1076.000	9293.68	0.7615	0.91
1078.000	9276.44	0.7646	0.9103
1080.000	9259.26	0.7675	0.9104
1082.000	9242.14	0.7708	0.9107
1084.000	9225.09	0.7743	0.9106
1086.000	9208.10	0.7777	0.9106
1088.000	9191.18	0.7806	0.9106
1090.000	9174.31	0.7838	0.9106
1092.000	9157.51	0.7872	0.9107
1094.000	9140.77	0.7907	0.9113
1096.000	9124.09	0.7941	0.9118
1098.000	9107.47	0.7971	0.9121
